# Matter power spectrum P(k) at redshift z=1
# for k=1.04206e-05 to 5.30492 h/Mpc,
# number of wavenumbers equal to 556
#    1:k (h/Mpc)              2:P (Mpc/h)^3        
       1.042057218184e-05       1.787510487250e+01 
       2.326965112415e-05       3.884164824230e+01 
       3.616368416872e-05       5.946645990418e+01 
       4.913719191725e-05       7.996112102189e+01 
       6.222526306445e-05       1.004475201478e+02 
       7.546386573355e-05       1.210179033021e+02 
       8.889016871877e-05       1.417517369987e+02 
       1.025428768881e-04       1.627226371438e+02 
       1.164625850318e-04       1.840019295873e+02 
       1.306921544768e-04       2.056608207152e+02 
       1.452771167917e-04       2.277719185407e+02 
       1.602661088538e-04       2.504104237521e+02 
       1.757113433749e-04       2.736551526518e+02 
       1.916691186261e-04       2.975894811525e+02 
       2.082003704664e-04       3.223022498563e+02 
       2.253712687320e-04       3.478886654052e+02 
       2.432538584340e-04       3.744512048130e+02 
       2.619267438085e-04       4.021005316514e+02 
       2.814758098240e-04       4.309564146492e+02 
       3.019949709311e-04       4.611486350109e+02 
       3.235869302956e-04       4.928178520913e+02 
       3.463639240694e-04       5.261163897980e+02 
       3.704484140748e-04       5.612088789400e+02 
       3.959736783305e-04       5.982726820747e+02 
       4.230842321522e-04       6.374979931311e+02 
       4.519359935960e-04       6.790874854802e+02 
       4.826960870561e-04       7.232553563862e+02 
       5.155421603026e-04       7.702255936266e+02 
       5.506610770747e-04       8.202292843177e+02 
       5.882468451593e-04       8.735007886675e+02 
       6.284976558419e-04       9.302726592805e+02 
       6.716119524841e-04       9.907692407394e+02 
       7.177835202354e-04       1.055199025044e+03 
       7.671956976641e-04       1.123746014355e+03 
       8.200149485639e-04       1.196560517341e+03 
       8.763841814321e-04       1.273750039170e+03 
       9.364163367091e-04       1.355371036581e+03 
       1.000188842050e-03       1.441422428181e+03 
       1.067739530131e-03       1.531841619695e+03 
       1.139064503232e-03       1.626503617613e+03 
       1.214118221415e-03       1.725223479458e+03 
       1.292815822631e-03       1.827761921750e+03 
       1.375037409658e-03       1.933826192131e+03 
       1.460633819102e-03       2.043093926348e+03 
       1.549433263643e-03       2.155225749823e+03 
       1.641248223755e-03       2.269861241920e+03 
       1.735882043984e-03       2.386636371553e+03 
       1.833134827612e-03       2.505192365952e+03 
       1.932808383248e-03       2.625182962277e+03 
       2.034710125310e-03       2.746279704361e+03 
       2.138655947702e-03       2.868175429834e+03 
       2.244472168970e-03       2.990586524512e+03 
       2.351996690194e-03       3.113253399228e+03 
       2.461079521215e-03       3.235941415711e+03 
       2.571582825405e-03       3.358438525354e+03 
       2.683380616443e-03       3.480555616787e+03 
       2.796358218551e-03       3.602124778878e+03 
       2.910411578940e-03       3.722997151641e+03 
       3.025446500155e-03       3.843042061760e+03 
       3.141377841964e-03       3.962144487871e+03 
       3.258128727682e-03       4.080204341871e+03 
       3.375629778325e-03       4.197134037764e+03 
       3.493818389235e-03       4.312857985443e+03 
       3.612638057434e-03       4.427310505044e+03 
       3.732037763424e-03       4.540435945369e+03 
       3.851971407996e-03       4.652185748437e+03 
       3.972397302585e-03       4.762520217875e+03 
       4.093277710397e-03       4.871404649052e+03 
       4.214578434808e-03       4.978811574357e+03 
       4.336268451195e-03       5.084717070561e+03 
       4.458319578280e-03       5.189103782572e+03 
       4.580706185135e-03       5.291956388293e+03 
       4.703404930208e-03       5.393263943341e+03 
       4.826394528974e-03       5.493019082994e+03 
       4.949655547086e-03       5.591216099488e+03 
       5.073170216191e-03       5.687852933730e+03 
       5.196922269879e-03       5.782928583990e+03 
       5.320896797456e-03       5.876444051563e+03 
       5.445080113527e-03       5.968402927137e+03 
       5.569459641572e-03       6.058808321611e+03 
       5.694023809915e-03       6.147668096537e+03 
       5.818761958675e-03       6.234987652939e+03 
       5.943664256446e-03       6.320775913027e+03 
       6.068721625606e-03       6.405029205808e+03 
       6.193925675282e-03       6.487877983090e+03 
       6.319268641115e-03       6.569272974149e+03 
       6.444743331067e-03       6.648998616718e+03 
       6.570343076612e-03       6.727249143346e+03 
       6.696061688712e-03       6.804037292790e+03 
       6.821893418064e-03       6.879377878500e+03 
       6.947832919166e-03       6.953276907068e+03 
       7.073875217785e-03       7.025742937509e+03 
       7.200015681476e-03       7.096786993886e+03 
       7.326249992837e-03       7.166426041668e+03 
       7.452574125202e-03       7.234674832176e+03 
       7.578984320550e-03       7.301542633185e+03 
       7.705477069379e-03       7.367059791136e+03 
       7.832049092365e-03       7.431214667023e+03 
       7.958697323625e-03       7.494018553092e+03 
       8.085418895432e-03       7.555501525828e+03 
       8.212211124224e-03       7.615677088724e+03 
       8.339071497814e-03       7.674557009757e+03 
       8.465997663657e-03       7.732152958153e+03 
       8.592987418093e-03       7.788483880240e+03 
       8.720038696471e-03       7.843558665522e+03 
       8.847149564069e-03       7.897388966889e+03 
       8.974318207751e-03       7.949990887095e+03 
       9.101542928276e-03       8.001374600305e+03 
       9.228822133218e-03       8.051556605078e+03 
       9.356154330437e-03       8.100547792296e+03 
       9.483538122048e-03       8.148363850825e+03 
       9.610972198861e-03       8.195015338698e+03 
       9.738455335230e-03       8.240519795531e+03 
       9.865986384300e-03       8.284880523359e+03 
       9.993564273599e-03       8.328125410235e+03 
       1.012118800096e-02       8.370244214050e+03 
       1.024885663075e-02       8.411268711226e+03 
       1.037656929035e-02       8.451212747561e+03 
       1.050432516691e-02       8.490067180111e+03 
       1.063212350435e-02       8.527868930044e+03 
       1.075996360053e-02       8.564622004968e+03 
       1.088784480465e-02       8.600318908438e+03 
       1.101576651488e-02       8.635004240576e+03 
       1.114372817602e-02       8.668670111359e+03 
       1.127172927752e-02       8.701333534770e+03 
       1.139976935144e-02       8.733002070214e+03 
       1.152784797069e-02       8.763687886000e+03 
       1.165596474734e-02       8.793407204467e+03 
       1.178411933107e-02       8.822170220377e+03 
       1.191231140769e-02       8.849981986858e+03 
       1.204054069778e-02       8.876860893682e+03 
       1.216880695546e-02       8.902805318549e+03 
       1.229710996722e-02       8.927842493167e+03 
       1.242544955078e-02       8.951977585757e+03 
       1.255382555417e-02       8.975215228016e+03 
       1.268223785470e-02       8.997573013382e+03 
       1.281068635814e-02       9.019064885704e+03 
       1.293917099791e-02       9.039693660095e+03 
       1.306769173434e-02       9.059468859870e+03 
       1.319624855393e-02       9.078399252815e+03 
       1.332484146880e-02       9.096500451964e+03 
       1.345347051603e-02       9.113781103379e+03 
       1.358213575713e-02       9.130256737749e+03 
       1.371083727760e-02       9.145927313924e+03 
       1.383957518639e-02       9.160805336577e+03 
       1.396834961557e-02       9.174903832258e+03 
       1.409716071990e-02       9.188233454986e+03 
       1.422600867652e-02       9.200789367761e+03 
       1.435489368463e-02       9.212612079916e+03 
       1.448381596521e-02       9.223676351538e+03 
       1.461277576080e-02       9.234016377601e+03 
       1.474177333527e-02       9.243621729657e+03 
       1.487080897367e-02       9.252520260219e+03 
       1.499988298201e-02       9.260697134619e+03 
       1.512899568719e-02       9.268192488571e+03 
       1.525814743687e-02       9.274990306672e+03 
       1.538733859939e-02       9.281112648901e+03 
       1.551656956372e-02       9.286565460835e+03 
       1.564584073940e-02       9.291354355973e+03 
       1.577515255657e-02       9.295491876889e+03 
       1.590450546593e-02       9.298984000377e+03 
       1.603389993880e-02       9.301839052412e+03 
       1.616333646718e-02       9.304062190942e+03 
       1.629281556376e-02       9.305672907434e+03 
       1.642233776207e-02       9.306674011449e+03 
       1.655190361655e-02       9.307059911301e+03 
       1.668151370268e-02       9.306860950857e+03 
       1.681116861713e-02       9.306074193050e+03 
       1.694086897792e-02       9.304721138844e+03 
       1.707061542457e-02       9.302783553986e+03 
       1.720040861833e-02       9.300285985872e+03 
       1.733024924236e-02       9.297231566803e+03 
       1.746013800200e-02       9.293640396909e+03 
       1.759007562495e-02       9.289503605123e+03 
       1.772006286159e-02       9.284802353684e+03 
       1.785010048523e-02       9.279645663913e+03 
       1.798018929242e-02       9.273913714417e+03 
       1.811033010322e-02       9.267735965052e+03 
       1.824052376159e-02       9.260985790906e+03 
       1.837077113569e-02       9.253779317045e+03 
       1.850107311825e-02       9.246077080260e+03 
       1.863143062694e-02       9.237948902396e+03 
       1.876184460481e-02       9.229313441000e+03 
       1.889231602063e-02       9.220165353739e+03 
       1.902284586938e-02       9.210640353051e+03 
       1.915343517266e-02       9.200600011076e+03 
       1.928408497917e-02       9.189882833715e+03 
       1.941479636520e-02       9.178989448238e+03 
       1.954557043510e-02       9.167993122733e+03 
       1.967640832185e-02       9.156249085172e+03 
       1.980731118754e-02       9.144097620262e+03 
       1.993828022397e-02       9.131547296941e+03 
       2.006931665321e-02       9.118553265227e+03 
       2.020042172819e-02       9.105187127532e+03 
       2.033159673334e-02       9.091494929909e+03 
       2.046284298520e-02       9.077384111510e+03 
       2.059416183310e-02       9.062886473320e+03 
       2.072555465984e-02       9.047980687116e+03 
       2.085702288238e-02       9.032766322034e+03 
       2.098856795258e-02       9.017217413405e+03 
       2.112019135793e-02       9.001238986894e+03 
       2.125189462236e-02       8.984985001813e+03 
       2.138367930699e-02       8.968381328939e+03 
       2.151554701099e-02       8.951437841215e+03 
       2.164749937244e-02       8.934196271268e+03 
       2.177953806914e-02       8.916615717389e+03 
       2.191166481961e-02       8.898721212756e+03 
       2.204388138394e-02       8.880521991435e+03 
       2.217618956478e-02       8.862019408777e+03 
       2.230859120836e-02       8.843245291287e+03 
       2.244108820548e-02       8.824150381102e+03 
       2.257368249257e-02       8.804787644475e+03 
       2.270637605277e-02       8.785170735302e+03 
       2.283917091708e-02       8.765278022124e+03 
       2.297206916549e-02       8.745094052117e+03 
       2.310507292820e-02       8.724687244408e+03 
       2.323818438680e-02       8.703970335248e+03 
       2.337140577562e-02       8.682997941989e+03 
       2.350473938296e-02       8.661826478160e+03 
       2.363818755247e-02       8.640424049932e+03 
       2.377175268458e-02       8.618771379110e+03 
       2.390543723787e-02       8.596879530981e+03 
       2.403924373063e-02       8.574788028621e+03 
       2.417317474233e-02       8.552457141214e+03 
       2.430723291522e-02       8.529989052409e+03 
       2.444142095598e-02       8.507216681276e+03 
       2.457574163740e-02       8.484265690166e+03 
       2.471019780008e-02       8.461175891303e+03 
       2.484479235430e-02       8.437573511627e+03 
       2.497952828182e-02       8.414070678253e+03 
       2.511440863780e-02       8.390539750353e+03 
       2.524943655283e-02       8.366585507686e+03 
       2.538461523491e-02       8.342675931716e+03 
       2.551994797163e-02       8.318136168991e+03 
       2.565543813231e-02       8.293744852402e+03 
       2.579108917030e-02       8.269233109061e+03 
       2.592690462528e-02       8.244652571903e+03 
       2.606288812571e-02       8.219789149462e+03 
       2.619904339133e-02       8.194868679691e+03 
       2.633537423576e-02       8.169646794297e+03 
       2.647188456914e-02       8.144377878980e+03 
       2.660857840094e-02       8.118931733522e+03 
       2.674545984285e-02       8.093379306960e+03 
       2.688253311172e-02       8.067768091234e+03 
       2.701980253265e-02       8.041891842518e+03 
       2.715727254222e-02       8.016107164541e+03 
       2.729494769174e-02       7.989988558122e+03 
       2.743283265076e-02       7.963799294135e+03 
       2.757093221056e-02       7.937533476445e+03 
       2.770925128788e-02       7.911173332176e+03 
       2.784779492874e-02       7.884770147156e+03 
       2.798656831242e-02       7.858250522657e+03 
       2.812557675556e-02       7.831552860582e+03 
       2.826482571649e-02       7.804819341558e+03 
       2.840432079965e-02       7.777970263529e+03 
       2.854406776019e-02       7.751104184982e+03 
       2.868407250883e-02       7.724123635174e+03 
       2.882434111679e-02       7.697017983478e+03 
       2.896487982102e-02       7.669927597384e+03 
       2.910569502960e-02       7.642682708672e+03 
       2.924679332731e-02       7.615462048547e+03 
       2.938818148154e-02       7.588212445784e+03 
       2.952986644832e-02       7.560750925308e+03 
       2.967185537870e-02       7.533385190291e+03 
       2.981415562530e-02       7.505753271396e+03 
       2.995677474926e-02       7.478206880062e+03 
       3.009972052734e-02       7.450628067248e+03 
       3.024300095943e-02       7.422978295239e+03 
       3.038662427637e-02       7.395343786241e+03 
       3.053059894805e-02       7.367471429987e+03 
       3.067493369194e-02       7.339722071915e+03 
       3.081963748193e-02       7.311903444651e+03 
       3.096471955766e-02       7.284044631966e+03 
       3.111018943415e-02       7.256207556134e+03 
       3.125605691194e-02       7.228388998991e+03 
       3.140233208775e-02       7.200442711394e+03 
       3.154902536547e-02       7.172391064474e+03 
       3.169614746783e-02       7.144450381640e+03 
       3.184370944855e-02       7.116426890951e+03 
       3.199172270507e-02       7.088394340557e+03 
       3.214019899187e-02       7.060368652426e+03 
       3.228915043450e-02       7.032309655932e+03 
       3.243858954427e-02       7.004265412141e+03 
       3.258852923362e-02       6.976207622436e+03 
       3.273898283235e-02       6.948078639395e+03 
       3.288996410460e-02       6.920015984958e+03 
       3.304148726669e-02       6.891902592702e+03 
       3.319356700599e-02       6.863834563784e+03 
       3.334621850063e-02       6.835713967112e+03 
       3.349945744031e-02       6.807589615835e+03 
       3.365330004827e-02       6.779432971781e+03 
       3.380776310435e-02       6.751329273459e+03 
       3.396286396938e-02       6.723287074138e+03 
       3.411862061083e-02       6.695186189087e+03 
       3.427505162998e-02       6.667046033348e+03 
       3.443217629055e-02       6.638945920067e+03 
       3.459001454898e-02       6.610964822036e+03 
       3.474858708643e-02       6.582798969073e+03 
       3.490791534268e-02       6.554729359274e+03 
       3.506802155196e-02       6.526710691354e+03 
       3.522892878099e-02       6.498670389990e+03 
       3.539066096924e-02       6.470602903537e+03 
       3.555324297165e-02       6.442594044110e+03 
       3.571670060404e-02       6.414573733532e+03 
       3.588106069126e-02       6.386571053793e+03 
       3.604635111847e-02       6.358589843998e+03 
       3.621260088561e-02       6.330656650709e+03 
       3.637984016546e-02       6.302663940583e+03 
       3.654810036549e-02       6.274726351053e+03 
       3.671741419379e-02       6.246865362653e+03 
       3.688781572942e-02       6.218881636483e+03 
       3.705934049765e-02       6.190984239043e+03 
       3.723202555023e-02       6.163099717671e+03 
       3.740590955142e-02       6.135203526014e+03 
       3.758103287006e-02       6.107354384185e+03 
       3.775743767824e-02       6.079522175826e+03 
       3.793516805718e-02       6.051740583457e+03 
       3.811427011096e-02       6.023840861695e+03 
       3.829479208872e-02       5.996027031377e+03 
       3.847678451622e-02       5.968223577007e+03 
       3.866030033749e-02       5.940421983967e+03 
       3.884539506765e-02       5.912613890245e+03 
       3.903212695780e-02       5.884831463821e+03 
       3.922055717329e-02       5.857069587998e+03 
       3.941074998658e-02       5.829295106133e+03 
       3.960277298617e-02       5.801510865084e+03 
       3.979669730323e-02       5.773762076954e+03 
       3.999259785769e-02       5.746039885242e+03 
       4.019055362587e-02       5.718235008440e+03 
       4.039064793189e-02       5.690472241616e+03 
       4.059296876547e-02       5.662704511264e+03 
       4.079760912889e-02       5.634876727244e+03 
       4.100466741648e-02       5.607158197192e+03 
       4.121424783023e-02       5.579298918679e+03 
       4.142646083574e-02       5.551454007377e+03 
       4.164142366316e-02       5.523606399632e+03 
       4.185926085861e-02       5.495751307956e+03 
       4.208010489205e-02       5.467909009343e+03 
       4.230409682879e-02       5.439929435325e+03 
       4.253138707251e-02       5.411952647008e+03 
       4.276213618907e-02       5.383967435124e+03 
       4.299651582176e-02       5.355918714241e+03 
       4.323470971014e-02       5.327897044741e+03 
       4.347691482675e-02       5.299678146232e+03 
       4.372334264809e-02       5.271501742155e+03 
       4.397422057899e-02       5.243224761895e+03 
       4.422979355281e-02       5.214887537129e+03 
       4.449032583360e-02       5.186442850507e+03 
       4.475610305095e-02       5.157979141587e+03 
       4.502743450392e-02       5.129385909418e+03 
       4.530465577670e-02       5.100700089805e+03 
       4.558813171716e-02       5.071907507015e+03 
       4.587825983858e-02       5.042987390608e+03 
       4.617547421737e-02       5.013933367124e+03 
       4.648024997343e-02       4.984749017419e+03 
       4.679310843808e-02       4.955374705818e+03 
       4.711462313633e-02       4.925840506245e+03 
       4.744542673739e-02       4.896098474459e+03 
       4.778621916136e-02       4.866202424703e+03 
       4.813777707216e-02       4.836097694869e+03 
       4.850096504009e-02       4.805644011353e+03 
       4.887674872396e-02       4.774941685648e+03 
       4.926621050739e-02       4.744036813789e+03 
       4.967056813086e-02       4.712748660331e+03 
       5.009119699740e-02       4.681111744172e+03 
       5.052965700323e-02       4.649086185638e+03 
       5.098772496582e-02       4.616587935312e+03 
       5.146743400368e-02       4.583595701804e+03 
       5.197112157935e-02       4.550080895403e+03 
       5.250148836656e-02       4.515895094813e+03 
       5.306167065974e-02       4.481097445979e+03 
       5.365532971666e-02       4.445440455339e+03 
       5.428676219783e-02       4.408721860306e+03 
       5.496103667412e-02       4.371036853489e+03 
       5.568416183560e-02       4.332205435608e+03 
       5.646329214182e-02       4.291758427539e+03 
       5.730697534224e-02       4.249499186456e+03 
       5.822544184811e-02       4.204876763850e+03 
       5.923092511134e-02       4.157749101348e+03 
       6.033797923528e-02       4.106980971376e+03 
       6.156371593776e-02       4.051866308876e+03 
